Bruker BioSpin GmbH: the minispec
DataType=5
DataLimits=0.03794,7.02394,500
DataUnit=Time/ms,Intensity/%
c:\nmr relaxation\applications\fid.app
28.03.2019 15:46:53

0.03794	90.22542071
0.05194	89.78422078
0.06594	89.64075076
0.07994	89.11885079
0.09394	88.80686954
0.10794	88.28608549
0.12194	87.76154863
0.13594	87.26211015
0.14994	86.70858823
0.16394	86.13462916
0.17794	85.38563768
0.19194	84.71395169
0.20594	83.91003604
0.21994	83.18789833
0.23394	82.23240446
0.24794	81.45293929
0.26194	80.57952391
0.27594	79.56955345
0.28994	78.65254675
0.30394	77.61120589
0.31794	76.61170385
0.33194	75.28269354
0.34594	74.17741096
0.35994	73.34260715
0.37394	71.82311539
0.38794	70.81407087
0.40194	69.63823729
0.41594	68.51965127
0.42994	67.35693491
0.44394	66.25796624
0.45794	65.01574571
0.47194	63.76846477
0.48594	62.58631208
0.49994	61.49519769
0.51394	60.37888446
0.52794	58.96695161
0.54194	57.83639326
0.55594	56.90201062
0.56994	55.70785656
0.58394	54.61575449
0.59794	53.38405568
0.61194	52.43090707
0.62594	51.32837027
0.63994	50.27954937
0.65394	49.20016807
0.66794	48.20530758
0.68194	47.30834424
0.69594	46.30068185
0.70994	45.44325094
0.72394	44.53420473
0.73794	43.51383862
0.75194	42.5885856
0.76594	41.89657841
0.77994	41.12425644
0.79394	40.30251119
0.80794	39.37951362
0.82194	38.78239713
0.83594	37.85869394
0.84994	37.1834467
0.86394	36.41532514
0.87794	35.54338539
0.89194	34.98042986
0.90594	34.30662321
0.91994	33.48544593
0.93394	33.04737643
0.94794	32.50973934
0.96194	31.6198865
0.97594	30.93765559
0.98994	30.22792653
1.00394	29.83680316
1.01794	29.30111911
1.03194	28.48008315
1.04594	27.58171221
1.05994	27.12731692
1.07394	26.6733858
1.08794	25.93545706
1.10194	25.20521548
1.11594	24.67347111
1.12994	24.03248041
1.14394	23.32465181
1.15794	23.00497211
1.17194	22.31740407
1.18594	21.5883651
1.19994	20.95824322
1.21394	20.33485801
1.22794	19.77788316
1.24194	19.09767694
1.25594	18.61456307
1.26994	18.08877766
1.28394	17.31849813
1.29794	16.91770225
1.31194	16.49413125
1.32594	15.91430715
1.33994	15.37046076
1.35394	14.65494476
1.36794	14.06669717
1.38194	13.63269598
1.39594	13.17769775
1.40994	12.50462635
1.42394	11.92350048
1.43794	11.67984521
1.45194	11.12377011
1.46594	10.75537831
1.47994	10.38376654
1.49394	9.628119172
1.50794	9.304830451
1.52194	8.886238519
1.53594	8.406449315
1.54994	8.07775134
1.56394	7.657030958
1.57794	7.350792425
1.59194	7.138420504
1.60594	6.727351082
1.61994	6.371052863
1.63394	6.069985022
1.64794	5.845574428
1.66194	5.337046479
1.67594	5.079423781
1.68994	4.799575488
1.70394	4.59025012
1.71794	4.490098143
1.73194	4.336944087
1.74594	4.105542846
1.75994	3.78707263
1.77394	3.71192404
1.78794	3.543681282
1.80194	3.233510014
1.81594	3.092196139
1.82994	2.86141838
1.84394	2.729914082
1.85794	2.657185936
1.87194	2.548355624
1.88594	2.372766995
1.89994	2.417459081
1.91394	2.225574093
1.92794	2.150210538
1.94194	1.905387956
1.95594	1.94457622
1.96994	1.637416812
1.98394	1.707481915
1.99794	1.583540204
2.01194	1.736742797
2.02594	1.442642783
2.03994	1.357015286
2.05394	1.544457954
2.06794	1.314151311
2.08194	1.422453322
2.09594	1.300466613
2.10994	1.44965295
2.12394	1.288720371
2.13794	1.360526327
2.15194	1.154992292
2.16594	1.20254674
2.17994	1.270076056
2.19394	1.22709104
2.20794	1.26984127
2.22194	1.308922421
2.23594	1.288720371
2.24994	1.251392232
2.26394	1.00389767
2.27794	1.279432176
2.29194	1.160143934
2.30594	1.2777998
2.31994	1.146701527
2.33394	1.210701368
2.34794	1.300466613
2.36194	1.353935656
2.37594	1.247574093
2.38994	1.17241552
2.40394	1.350849005
2.41794	1.141750401
2.43194	1.163223967
2.44594	1.091277312
2.45994	1.22903341
2.47394	1.063883805
2.48794	1.20254674
2.50194	1.015708637
2.51594	1.060234107
2.52994	1.050344965
2.54394	0.9065060412
2.55794	0.9611071382
2.57194	0.8671687865
2.58594	0.7632966842
2.59994	0.960175983
2.61394	0.6945769306
2.62794	0.5174510403
2.64194	0.6148805036
2.65594	0.5377952514
2.66994	0.5333413838
2.68394	0.7081807082
2.69794	0.4158580309
2.71194	0.5282859012
2.72594	0.1092096692
2.73994	0.3861144884
2.75394	0.4489566865
2.76794	0.2940560337
2.78194	0.293040293
2.79594	0.4741511072
2.80994	0.2316686931
2.82394	0.5034317003
2.83794	0.4914435115
2.85194	0.563780043
2.86594	0.5870972054
2.87994	0.753863201
2.89394	0.7285193597
2.90794	0.8295622833
2.92194	0.8132271456
2.93594	0.6984297751
2.94994	0.882168101
2.96394	0.9282821885
2.97794	0.8942531587
2.99194	1.148000906
3.00594	0.9943478912
3.01994	1.314378182
3.03394	1.223197049
3.04794	1.224902193
3.06194	1.315058561
3.07594	1.126766495
3.08994	1.382483991
3.10394	1.127560086
3.11794	1.409608761
3.13194	1.578070273
3.14594	1.583540204
3.15994	1.540011236
3.17394	1.629567826
3.18794	1.676644092
3.20194	1.605976366
3.21594	1.593488459
3.22994	1.564597654
3.24394	1.687810617
3.25794	1.764336202
3.27194	1.726756486
3.28594	1.904761905
3.29994	1.778643002
3.31394	1.823507175
3.32794	1.832966447
3.34194	1.866175646
3.35594	1.723472526
3.36994	1.859933971
3.38394	1.832966447
3.39794	1.796158784
3.41194	1.863777475
3.42594	1.815148809
3.43994	1.809719884
3.45394	1.758411334
3.46794	1.94442288
3.48194	1.765012063
3.49594	1.653724342
3.50994	1.885251191
3.52394	2.016242389
3.53794	1.854153775
3.55194	1.722087933
3.56594	1.832152916
3.57994	1.737944161
3.59394	1.718795053
3.60794	1.892354947
3.62194	1.83735329
3.63594	1.681970731
3.64994	1.738630282
3.66394	1.655166125
3.67794	1.399418684
3.69194	1.760444963
3.70594	1.693630367
3.71994	1.693630367
3.73394	1.77192478
3.74794	1.591990819
3.76194	1.833291759
3.77594	1.484809779
3.78994	1.510295101
3.80394	1.675754673
3.81794	1.353935656
3.83194	1.442642783
3.84594	1.503171028
3.85994	1.60207272
3.87394	1.472711725
3.88794	1.365120865
3.90194	1.401334968
3.91594	1.20872954
3.92994	1.278266406
3.94394	1.056571802
3.95794	1.139659281
3.97194	1.079464523
3.98594	1.304358521
3.99994	1.072814781
4.01394	1.060234107
4.02794	1.167318037
4.04194	1.08442507
4.05594	1.144619453
4.06994	1.139135901
4.08394	0.8547008547
4.09794	0.8117592253
4.11194	0.9231286042
4.12594	0.7924288518
4.13994	0.7943079838
4.15394	0.5716581153
4.16794	0.9889356157
4.18194	0.7427060477
4.19594	0.5487717962
4.20994	0.6451694659
4.22394	0.6915654339
4.23794	0.5870972054
4.25194	0.5536402466
4.26594	0.5568622345
4.27994	0.3392538215
4.29394	0.4201379862
4.30794	0.5789142657
4.32194	0.2086447801
4.33594	0.3663003663
4.34994	0.3020590202
4.36394	0.1968805311
4.37794	0.1907264878
4.39194	0.1638145038
4.40594	0.2641429506
4.41994	0.3814529756
4.43394	0.2697279858
4.44794	0.3401315819
4.46194	0.08804765019
4.47594	0.2211327262
4.48994	0.2940560337
4.50394	0.07326007326
4.51794	0.1006863401
4.53194	0.293040293
4.54594	0.3108161676
4.55994	0.2013726801
4.57394	0.4151404151
4.58794	0.3453512973
4.60194	0.2858290576
4.61594	0.3814529756
4.62994	0.3605573397
4.64394	0.4151404151
4.65794	0.2086447801
4.67194	0.4588106039
4.68594	0.4151404151
4.69994	0.5679952796
4.71394	0.5034317003
4.72794	0.5487717962
4.74194	0.5081477911
4.75594	0.4482920574
4.76994	0.5568622345
4.78394	0.427175963
4.79794	0.4347861737
4.81194	0.4716290089
4.82594	0.5536402466
4.83994	0.6984297751
4.85394	0.4347861737
4.86794	0.5525620757
4.88194	0.4327239352
4.89594	0.5579320957
4.90994	0.6575292805
4.92394	0.440238251
4.93794	0.3727554951
4.95194	0.5695679507
4.96594	0.7475080764
4.97994	0.5716581153
4.99394	0.5747791109
5.00794	0.6837606838
5.02194	0.6633981786
5.03594	0.7317862791
5.04994	0.6124510967
5.06394	0.5271558766
5.07794	0.4697285485
5.09194	0.7260595237
5.10594	0.5151409795
5.11994	0.6105006105
5.13394	0.5372405372
5.14794	0.70986285
5.16194	0.5906415933
5.17594	0.4890106079
5.18994	0.6148805036
5.20394	0.4697285485
5.21794	0.3276290077
5.23194	0.4908364162
5.24594	0.6391332028
5.25994	0.4264773919
5.27394	0.6124510967
5.28794	0.5870972054
5.30194	0.5460483462
5.31594	0.4588106039
5.32994	0.70986285
5.34394	0.6240259995
5.35794	0.5700912103
5.37194	0.4865655396
5.38594	0.5377952514
5.39994	0.6163335514
5.41394	0.4502830016
5.42794	0.5151409795
5.44194	0.5961687724
5.45594	0.5695679507
5.46994	0.6642964839
5.48394	0.6278368807
5.49794	0.5355729475
5.51194	0.3822338423
5.52594	0.625457801
5.53994	0.5028390789
5.55394	0.2211327262
5.56794	0.5260234244
5.58194	0.563780043
5.59594	0.4884004884
5.60994	0.6148805036
5.62394	0.6669841408
5.63794	0.6349206349
5.65194	0.563780043
5.66594	0.7585946064
5.67994	0.4890106079
5.69394	0.5579320957
5.70794	0.7632966842
5.72194	0.8237913452
5.73594	0.563780043
5.74994	0.6465544466
5.76394	0.8965841148
5.77794	0.8547008547
5.79194	0.6575292805
5.80594	0.5695679507
5.81994	0.8736773538
5.83394	0.7756962234
5.84794	0.7252377243
5.86194	0.9381867015
5.87594	0.7863854549
5.88994	0.8736773538
5.90394	0.8352933517
5.91794	0.9324485027
5.93194	0.8476949918
5.94594	0.9498730324
5.95994	0.6915654339
5.97394	0.9005660032
5.98794	0.8547008547
6.00194	1.00389767
6.01594	0.70986285
6.02994	0.797305383
6.04394	1.011000808
6.05794	0.6997093422
6.07194	0.7644676846
6.08594	1.00389767
6.09994	0.8335066259
6.11394	0.9205409927
6.12794	0.9916454459
6.14194	0.9298868261
6.15594	0.9176212077
6.16994	0.9432580179
6.18394	0.9967439136
6.19794	1.057981881
6.21194	0.9795443771
6.22594	0.9266747722
6.23994	0.9330878229
6.25394	0.9298868261
6.26794	0.7954333321
6.28194	0.8476949918
6.29594	0.9844026555
6.30994	1.043223901
6.32394	1.03288332
6.33794	0.8058608059
6.35194	0.7326007326
6.36594	0.7119599383
6.37994	1.108626077
6.39394	0.8955858765
6.40794	1.099985898
6.42194	0.9048599421
6.43594	1.025931699
6.44994	0.9117535874
6.46394	1.099985898
6.47794	1.054594524
6.49194	0.7890351366
6.50594	0.9038708436
6.51994	0.69928308
6.53394	0.9244196938
6.54794	0.9536324391
6.56194	0.8335066259
6.57594	0.939457097
6.58994	0.8420483345
6.60394	0.8791208791
6.61794	0.8588769424
6.63194	0.9266747722
6.64594	1.020102494
6.65994	0.9976409385
6.67394	0.8476949918
6.68794	0.678507643
6.70194	0.8150583281
6.71594	0.9498730324
6.72994	0.797305383
6.74394	0.7491019121
6.75794	0.8187084061
6.77194	0.73300762
6.78594	0.7605573383
6.79994	0.7863854549
6.81394	0.7031101367
6.82794	0.8317160618
6.84194	0.659792727
6.85594	0.7132152316
6.86994	0.7211146794
6.88394	0.6031301116
6.89794	0.5901365555
6.91194	0.6570756555
6.92594	0.6119640579
6.93994	0.8088153925
6.95394	0.7252377243
6.96794	0.5282859012
6.98194	0.6705509264
6.99594	0.6894063108
7.00994	0.7132152316
7.02394	0.5191768407
